Energy	Hydrogen	Helium	Lithium	Beryllium	Boron	Carbon	Nitrogen	Oxygen	Fluorine	Neon	Sodium	Magnesium	Aluminum	Silicon	Phosphorus	Sulfur	Chlorine	Argon	Potassium
3	4.46E-05	3.31E-04	4.054477802	39.52095829	1.11E+02	204.6871869	0.169622375	0.288955355	0.519829137	0.364580161	490.7570277	1144.467712	2127.538862	2269.811133	2034.681132	2677.862864	4.410125214	0.282965201	195.826234
3.1	4.30E-05	3.01E-04	3.661783314	35.72506449	1.00E+02	185.4802781	0.153961222	0.262729873	0.47348571	0.332634569	448.4238598	1046.937655	1950.117916	2083.522562	1870.739721	2464.771523	4.06113789	0.258635122	179.0285021
3.2	4.16E-05	2.75E-04	3.318511185	32.39876135	9.13E+01	168.5595789	0.140132422	0.239517135	0.432364956	0.304225097	410.7072961	960.0103463	1791.402882	1916.573752	1723.485618	2273.163942	3.747730895	0.23703332	164.1100893
3.3	4.03E-05	2.52E-04	3.017183114	29.4719967	8.32E+01	153.6013088	0.127881385	0.218907161	0.395771735	0.278890539	377.0145706	882.3152531	1649.079207	1766.611167	1590.934827	2100.50535	3.465573686	1.981812418	150.8120561
3.4	3.92E-05	2.31E-04	2.751631566	26.88684579	7.60E+01	140.3340801	0.11699381	0.20055325	0.36311534	0.256237299	346.8382717	812.682753	1521.151228	1631.599221	1471.363456	1944.591247	3.210932982	1.851792126	138.9174422
3.5	3.83E-05	2.14E-04	2.516740417	24.59513837	6.96E+01	128.5294893	0.107288636	0.184161263	0.333892409	0.23592867	319.7431044	750.111924	1405.895485	1509.774925	1363.272181	1803.502489	2.980583185	1.731698486	128.2434992
3.6	3.75E-05	1.98E-04	2.308242452	22.55660059	6.39E+01	117.9945412	0.098612337	0.169480832	0.307672775	0.217675881	295.3547712	693.7437971	1301.820898	1399.608922	1265.355362	1675.566235	2.771730828	1.620766814	118.6355287
3.7	3.67E-05	1.84E-04	2.122560099	20.73738954	5.88E+01	108.5655257	0.090834259	0.156298158	0.284087758	0.201230629	273.3506428	642.8391288	1207.634883	1299.772156	1176.474343	1559.322175	2.581950871	1.518275407	1003.265731
3.8	3.60E-05	1.71E-04	1.956679316	19.10892984	5.43E+01	100.1030504	0.083842829	0.144430083	0.262820455	0.186378837	253.4519336	596.7599057	1122.214595	1209.107419	1095.634464	1453.493438	2.40913299	1.423548303	938.2969724
3.9	3.54E-05	1.60E-04	1.808049078	17.64698404	5.02E+01	92.4879948	0.077542438	0.133719195	0.243597679	0.172935449	235.4171363	554.9539302	1044.582534	1126.605104	1021.965319	1356.961581	2.251436251	1.3359562	878.7248895
4	3.49E-05	1.50E-04	1.674500791	16.33090553	4.65E+01	85.6182026	0.07185089	0.124029799	0.226183257	0.160740068	219.0365081	516.9419473	973.8858502	1051.382556	954.7038242	1268.745126	2.107250807	1.254916053	824.0188202
4.1	3.44E-05	1.41E-04	1.554183282	15.14303451	4.31E+01	79.40576677	0.066697284	0.115244558	0.210372439	0.149653304	204.1274343	482.3068709	909.3787967	982.6664814	893.1797048	1187.981154	1.975165493	1.179889735	773.7064429
4.2	3.40E-05	1.33E-04	1.445510101	14.06820717	4.01E+01	73.77479286	0.062020278	0.107261715	0.195987222	0.139553708	190.5305224	450.6847455	850.4078188	919.7779578	836.8030615	1113.909512	1.853940355	1.110382081	727.3669703
4.3	3.36E-05	1.25E-04	1.347116543	13.09335474	3.73E+01	68.65954922	0.057766635	0.099992769	0.182872443	0.130335191	178.1063063	421.7571445	796.3988835	862.1196518	785.0537104	1045.859265	1.742483324	1.045938541	684.6251301
4.4	3.33E-05	1.18E-04	1.257824452	12.20717421	3.48E+01	64.00293168	0.053890018	0.093360531	0.17089249	0.121904849	166.7324602	395.2447619	746.8466909	809.1649006	737.4720393	983.2370709	1.639830365	0.986142616	645.1458541
4.5	3.29E-05	1.12E-04	1.176613242	11.39985693	3.25E+01	59.75518455	0.05034998	0.087297501	0.159928531	0.114181127	156.3014362	370.9019949	701.3054745	760.4483774	693.651155	925.5171766	1.545128545	0.930613206	608.6296022
4.6	3.27E-05	1.07E-04	1.102595943	10.66286366	3.05E+01	55.8728314	0.04711112	0.081744492	0.149876177	0.107092257	146.71846	348.5123521	659.3811424	715.5580962	653.2301327	872.2328197	1.457621568	0.879001962	574.8082498
4.7	3.24E-05	1.02E-04	1.034999301	9.988737414	2.85E+01	52.31777827	0.044142371	0.076649473	0.140643506	0.100574936	137.8998233	327.8845528	620.7245523	674.1285535	615.888204	822.9688143	1.376637385	0.830990699	543.4414729
4.8	3.21E-05	9.71E-05	0.973147188	9.370947202	2.68E+01	49.05655879	0.041416397	0.071966598	0.13214938	0.094573206	129.7714279	308.8492032	585.0257444	635.8348335	581.3397455	777.355154	1.301577555	0.786288921	514.3135726
4.9	3.19E-05	9.29E-05	0.916446718	8.803756905	2.52E+01	46.05969693	0.03890909	0.067655365	0.124322013	0.089037482	122.2675406	291.2559579	552.0089869	600.3875335	549.3299505	735.0614819	1.231908092	0.744631473	487.2306839
5	3.17E-05	8.90E-05	0.864376571	8.282114944	2.37E+01	43.30116712	0.036599134	0.063679917	0.117097758	0.083923742	115.3297261	274.971089	521.4285108	567.5283854	519.6310855	695.7923029	1.16715158	0.705776347	462.0183236
5.1	3.15E-05	8.54E-05	0.816477153	7.801561071	2.23E+01	40.75793572	0.034467639	0.060008434	0.110420056	0.079192813	108.9059298	259.8753997	493.0648298	537.0264727	492.0392449	659.282831	1.106880348	0.669502643	438.519233
5.2	3.14E-05	8.21E-05	0.772342264	7.358147356	2.10E+01	38.40957013	0.032497827	0.056612621	0.10423854	0.074809769	102.949689	245.8624292	466.7215598	508.674953	466.3715352	625.2953811	1.050710567	0.635608678	416.5914803
5.3	3.12E-05	7.90E-05	0.731612028	6.948370987	1.99E+01	36.2379049	0.030674768	0.053467261	0.098508272	0.070743409	97.41945152	232.8369033	442.2226636	482.2882159	442.4636248	593.6162291	0.998297126	0.603910259	396.1067888
5.4	3.11E-05	7.62E-05	0.693966867	6.569116948	1.88E+01	34.22675557	0.02898514	0.050549835	0.093189073	0.066965804	92.27798653	220.7133962	419.4100599	457.6994108	420.16761	564.0528727	0.94932917	0.574239089	376.9490639
5.5	3.09E-05	7.36E-05	0.659122349	6.217608958	1.78E+01	32.36167267	0.02741704	0.047840195	0.088244953	0.063451909	87.49187399	209.415169	398.1415431	434.7582944	399.3501522	536.4316405	0.903526219	0.546441323	359.0130927
5.6	3.08E-05	7.12E-05	0.626824782	5.891367366	1.68E+01	30.62973	0.025959808	0.045320281	0.08364361	0.060179224	83.03106104	198.8731627	378.2889712	413.3293524	379.8908491	510.5955978	0.86063477	0.520376241	342.2033958
5.7	3.07E-05	6.90E-05	0.596847415	5.588172909	1.60E+01	29.01934153	0.02460388	0.04297387	0.079356006	0.0571275	78.86847591	189.0251202	359.7366835	393.2901561	361.6808082	486.4027124	0.820425329	0.495915056	326.4332115
5.8	3.06E-05	6.69E-05	0.568987176	5.30603544	1.51E+01	27.52010307	0.023340659	0.040786368	0.075355986	0.054278481	74.97969112	179.814821	342.380116	374.5299241	344.6213945	463.7242427	0.782689807	0.472939817	311.6235966
5.9	3.05E-05	6.50E-05	0.543061842	5.043166864	1.44E+01	26.12265473	0.022162404	0.038744619	0.071619955	0.051615682	71.34262903	171.1914122	326.1245883	356.9482592	328.6231301	442.4433205	0.747239231	0.451342426	297.7026294
6	3.04E-05	6.32E-05	0.518907598	4.797957659	1.37E+01	24.8185613	0.021062132	0.036836749	0.06812659	0.049124192	67.93730405	163.1088219	310.8842378	340.4540385	313.6047248	422.4537015	0.71390173	0.431023738	284.604702
6.1	3.03E-05	6.15E-05	0.496376908	4.568956463	1.30E+01	23.60020796	0.020033535	0.035052016	0.064856592	0.046790504	64.74559639	155.5252451	296.5810826	324.964435	299.4922218	403.6586626	0.682520756	0.411892755	272.2698915
6.2	3.02E-05	5.99E-05	0.475336666	4.354852272	1.24E+01	22.46070918	0.019070904	0.033380695	0.061792465	0.044602361	61.75105309	148.4026911	283.1441954	310.4040552	286.218242	385.9700274	0.652953521	0.393865889	260.6434007
6.3	3.01E-05	5.84E-05	0.455666583	4.154458898	1.18E+01	21.39382886	0.018169063	0.031813961	0.058918324	0.042548629	58.93871284	141.7065845	270.5089738	296.7041764	273.7213152	369.3073019	0.625069602	0.376866297	249.6750594
6.4	3.01E-05	5.71E-05	0.437257774	3.966701354	1.13E+01	20.39391039	0.017323316	0.030343796	0.056219728	0.040619175	56.29495136	135.4054134	258.6164957	283.8020718	261.9452883	353.5969092	0.598749709	0.360823285	239.3188794
6.5	3.00E-05	5.58E-05	0.420011523	3.790603902	1.08E+01	19.45581504	0.016529391	0.028962909	0.053683527	0.038804763	53.80734471	129.4704181	247.4129473	271.6404113	250.8387985	338.7715086	0.573884599	0.345671757	229.5326581
6.6	2.99E-05	5.46E-05	0.403838192	3.625279557	1.03E+01	18.5748677	0.0157834	0.027664653	0.051297728	0.03709697	51.46454827	123.8753153	236.8491165	260.1667303	240.3548056	324.76939	0.550374093	0.331351727	220.2776222
6.7	2.99E-05	5.35E-05	0.388656271	3.469920826	9.82E+00	17.7468091	0.015081799	0.026442965	0.049051386	0.035488096	49.25618937	118.5960534	226.879942	249.3329564	230.4501751	311.5339342	0.528126216	0.317807872	211.5181104
6.8	2.98E-05	5.24E-05	0.374391528	3.323791539	9.40E+00	16.96775341	0.014421351	0.025292306	0.046934491	0.033971099	47.17277188	113.6105945	217.4641119	239.0949877	221.0853069	299.0131311	0.507056422	0.304989127	203.2212873
6.9	2.98E-05	5.14E-05	0.36097627	3.186219627	9.00E+00	16.23415076	0.013799098	0.02420761	0.04493788	0.032539526	45.20559136	108.8987212	208.5637063	229.4123168	212.2238027	287.1591493	0.487086901	0.29284832	195.3568883
7	2.97E-05	5.05E-05	0.348348681	3.056590714	8.62E+00	15.54275402	0.013212331	0.023184235	0.043053157	0.031187461	43.34665934	104.4418635	200.1438772	220.2476948	203.8321691	275.9279502	0.46814596	0.281341839	187.8969883
7.1	2.97E-05	4.96E-05	0.336452236	2.934342435	8.26E+00	14.89058918	0.012658569	0.022217925	0.041272615	0.02990947	41.58863581	100.2229447	192.1725638	211.5668299	195.8795515	265.2789426	0.45016747	0.27042933	180.8157955
7.2	2.97E-05	4.88E-05	0.325235185	2.818959384	7.92E+00	14.27492904	0.012135535	0.021304773	0.039589175	0.028700557	39.92476882	96.22624284	184.6202358	203.3381183	188.3374956	255.1746729	0.433090369	0.260073427	174.0894642
7.3	2.96E-05	4.80E-05	0.314650089	2.709968613	7.60E+00	13.69326976	0.011641137	0.020441186	0.037996324	0.027556126	38.34884038	92.4372676	177.4596642	195.5324017	181.1797321	245.5805456	0.416858207	0.250239498	167.6959265
7.4	2.96E-05	4.73E-05	0.304653407	2.606935612	7.30E+00	13.14330982	0.011173451	0.019623859	0.036488066	0.026471941	36.855118	88.8426489	170.6657154	188.12275	174.3819847	236.4645729	0.401418753	0.240895424	161.6147406
7.5	2.95E-05	4.66E-05	0.295205132	2.509460727	7.02E+00	12.62293136	0.010730704	0.018849747	0.035058874	0.025444094	35.43831112	85.43003732	164.2151657	181.0842655	167.9217954	227.7971481	0.386723624	0.232011392	155.8269528
7.6	2.95E-05	4.59E-05	0.286268461	2.417175946	6.74E+00	12.13018331	0.010311265	0.01811604	0.033703646	0.024468979	34.09353201	82.18801439	158.0865344	174.3939063	161.7783684	219.550842	0.37272796	0.223559708	150.3149733
7.7	2.95E-05	4.53E-05	0.277809497	2.329742019	6.49E+00	11.66326633	0.009913627	0.017420146	0.03241767	0.023543259	32.81626047	79.10601172	152.2599335	168.0303273	155.9324284	211.7002178	0.359390127	0.215514624	145.0624636
7.8	2.94E-05	4.47E-05	0.269796992	2.24684588	6.24E+00	11.22051929	0.009536397	0.016759667	0.031196588	0.022663851	31.60231208	76.1742381	146.7169316	161.9737362	150.3660923	204.2216651	0.346671449	0.20785219	140.054234
7.9	2.94E-05	4.41E-05	0.262202105	2.16819832	6.01E+00	10.80040706	0.009178289	0.016132387	0.030036368	0.021827898	30.44780953	73.38361364	141.4404311	156.2057637	145.0627539	197.093248	0.334535966	0.200550104	135.2761506
8	2.94E-05	4.36E-05	0.254998189	2.0935319	5.79E+00	10.40150957	0.008838112	0.015536253	0.028933272	0.021032749	29.34915667	70.7257102	136.4145575	150.7093451	140.0069782	190.294569	0.32295021	0.193587589	130.715051
8.1	2.94E-05	4.31E-05	0.248160605	2.022599068	5.58E+00	10.02251187	0.008514761	0.01496936	0.027883835	0.020275949	28.30301506	68.19269741	131.624558	145.4686143	135.184407	183.8066437	0.311883008	0.186945272	126.3586676
8.2	2.93E-05	4.26E-05	0.24166654	1.955170454	5.38E+00	9.662195211	0.008207215	0.014429945	0.02688484	0.019555215	27.30628271	65.77729383	127.0567105	140.4688063	130.5816716	177.6117886	0.301305301	0.180605077	122.195557
8.3	2.93E-05	4.22E-05	0.235494858	1.891033343	5.20E+00	9.319428978	0.007914523	0.013916366	0.025933299	0.018868425	26.35607481	63.47272252	122.698241	135.6961689	126.1863145	171.6935177	0.291189973	0.174550127	118.2150369
8.4	2.93E-05	4.17E-05	0.229625957	1.829990274	5.01E+00	8.993163339	0.007635803	0.013427101	0.025026432	0.018213606	25.44970622	61.2726707	118.5372472	131.1378831	121.9867178	166.0364491	0.281511706	0.16876465	114.4071272
8.5	2.93E-05	4.13E-05	0.22404164	1.771857792	4.84E+00	8.682422627	0.007370234	0.012960731	0.024161652	0.01758892	24.58467553	59.17125311	114.5626309	126.78199	117.9720376	160.6262198	0.272246839	0.163233902	110.7624972
8.6	2.93E-05	4.09E-05	0.218724998	1.716465296	4.68E+00	8.386299317	0.007117054	0.012515937	0.023336551	0.016992654	23.75865063	57.16297853	110.7640347	122.6173236	114.1321451	155.4494075	0.263373242	0.157944087	107.2724163
8.7	2.92E-05	4.06E-05	0.21366031	1.66365401	4.52E+00	8.103948554	0.00687555	0.012091489	0.022548883	0.016423211	22.96945544	55.24271935	107.131785	118.6334509	110.4575713	150.4934593	0.254870204	0.152882287	103.9287103
8.8	2.92E-05	4.02E-05	0.208832944	1.613276034	4.37E+00	7.834583179	0.006645061	0.011686241	0.021796553	0.015879101	22.21505795	53.40568377	103.6568405	114.8206159	106.9394583	145.746627	0.246718324	0.148036402	100.7237196
8.9	2.92E-05	3.99E-05	0.204229268	1.565193493	4.23E+00	7.577469198	0.006424968	0.011299121	0.021077603	0.01535893	21.49355914	51.64739038	100.3307437	111.1696891	103.5695129	141.1979073	0.238899416	0.143395087	97.65026248
9	2.92E-05	3.95E-05	0.199836576	1.519277749	4.09E+00	7.331921651	0.006214694	0.010929131	0.020390207	0.014861397	20.80318305	49.96364493	97.14557799	107.6721209	100.3399657	136.8369871	0.231396424	0.1389477	94.70160019
9.1	2.92E-05	3.92E-05	0.195643014	1.475408692	3.96E+00	7.097300846	0.0060137	0.010575335	0.019732654	0.014385284	20.14226749	48.35051911	94.09392741	104.319899	97.24353231	132.6541935	0.224193336	0.134684252	91.87140569
9.2	2.92E-05	3.89E-05	0.191637514	1.433474089	3.84E+00	6.87300892	0.005821481	0.010236861	0.019103344	0.013929451	19.50925567	46.804331	91.16884023	101.1055096	94.27337888	128.640448	0.217275111	0.130595361	89.15373447
9.3	2.91E-05	3.87E-05	0.187809734	1.393368986	3.72E+00	6.658486684	0.005637565	0.009912889	0.018500781	0.013492829	18.90268852	45.32162727	88.36379533	98.02190139	91.42308949	124.787224	0.210627613	0.126672209	86.5429978
9.4	2.91E-05	3.84E-05	0.184150002	1.354995169	3.61E+00	6.453210753	0.005461512	0.009602653	0.01792356	0.013074418	18.32119756	43.89916673	85.67267141	95.06245279	88.68663678	121.086508	0.204237545	0.122906505	84.03393815
9.5	2.91E-05	3.81E-05	0.180649271	1.318260663	3.50E+00	6.256690904	0.005292905	0.009305435	0.017370364	0.012673278	17.76349844	42.53390527	83.08971867	92.2209415	86.05835468	117.5307641	0.198092394	0.119290448	81.62160649
9.6	2.91E-05	3.79E-05	0.177299065	1.283079277	3.39E+00	6.068467656	0.005131359	0.009020561	0.016839958	0.012288526	17.22838496	41.22298202	80.60953272	89.49151678	83.53291338	114.1129007	0.192180374	0.115816694	79.30134132
9.7	2.91E-05	3.77E-05	0.174091444	1.249370181	3.29E+00	5.888110055	0.004976508	0.008747399	0.016331182	0.011919335	16.7147236	39.96370658	78.22703067	86.86867376	81.10529627	110.8262405	0.18649038	0.112478323	77.06874936
9.8	2.91E-05	3.74E-05	0.171018964	1.217057528	3.19E+00	5.715213629	0.00482801	0.008485354	0.015842947	0.011564926	16.22144844	38.75354727	75.93742894	84.34722981	78.77077857	107.6644924	0.18101194	0.109268816	74.9196877
9.9	2.91E-05	3.72E-05	0.168074636	1.186070095	3.10E+00	5.549398521	0.004685545	0.008233867	0.015374226	0.011224566	15.74755651	37.59012029	73.73622295	81.92230269	76.52490777	104.6217254	0.175735175	0.106182023	72.85024726
10	2.91E-05	3.70E-05	0.165251902	1.156340961	3.01E+00	5.39030776	0.004548809	0.007992415	0.014924057	0.010897565	15.29210351	36.47117975	71.61916827	79.58929042	74.3634854	101.692345	0.170650759	0.103212142	70.85673753
10.1	2.90E-05	3.68E-05	0.162544599	1.127807206	2.93E+00	5.237605671	0.00441752	0.007760501	0.014491532	0.010583276	14.85419982	35.50326	69.58226324	77.34385267	72.28255029	98.87107076	0.166644234	0.100353697	68.93567239
10.2	2.90E-05	3.66E-05	0.159946932	1.100409636	2.84E+00	5.090976417	0.004291409	0.007537662	0.014075795	0.010281085	14.43300687	34.48461	67.62173294	75.18189354	70.27836302	96.15291638	0.162053835	0.097601514	67.08375704
10.3	2.90E-05	3.64E-05	0.157453452	1.07409253	2.77E+00	4.950122645	0.004170225	0.007323459	0.01367604	0.009990416	14.02773375	33.50464	65.73401429	73.09954562	68.34739156	93.53317021	0.157628013	0.094950705	65.2978758
10.4	2.90E-05	3.63E-05	0.155059028	1.048803402	2.69E+00	4.81476424	0.00405373	0.007117478	0.013291509	0.009710726	13.63763407	32.56157	63.91574234	71.09315521	66.48629792	91.00737795	0.153359625	0.092396646	63.57508082
10.5	2.90E-05	3.61E-05	0.152758829	1.024492787	2.62E+00	4.684637174	0.003941701	0.00691933	0.012921484	0.0094415	13.26200305	31.65367	62.16373746	69.1592687	64.69192585	88.57132632	0.14924189	0.089934966	61.91258163
10.6	2.90E-05	3.59E-05	0.150548301	1.00111404	2.55E+00	4.559492441	0.003833926	0.006728647	0.012565288	0.009182253	12.90017489	30.77933	60.47499359	67.29461984	62.96128931	86.22102794	0.14526836	0.087561527	60.30773541
10.7	2.90E-05	3.58E-05	0.148423153	0.97862315	2.48E+00	4.439095073	0.003730207	0.006545081	0.012222282	0.008932528	12.55152021	29.93702	58.84666725	65.49611799	61.2915619	83.95270724	0.141432909	0.08527241	58.75803788
10.8	2.90E-05	3.56E-05	0.146379334	0.956978569	2.41E+00	4.323223227	0.003630354	0.006368304	0.011891861	0.008691891	12.2154438	29.12529	57.27606733	63.76083716	59.68006693	81.7627875	0.137729713	0.083063903	57.26111492
10.9	2.90E-05	3.55E-05	0.144413022	0.936141054	2.35E+00	4.211667338	0.00353419	0.006198006	0.011573454	0.008459932	11.89138246	28.34277	55.76064569	62.08600586	58.12426822	79.64787859	0.134153229	0.080932488	55.81471471
11	2.90E-05	3.53E-05	0.142520605	0.916073517	2.29E+00	4.104229341	0.003441548	0.006033894	0.011266522	0.008236264	11.57880299	27.58818	54.29798834	60.46899765	56.62176158	77.60476578	0.130698188	0.07887483	54.41670044
11.1	2.90E-05	3.52E-05	0.140698673	0.89674089	2.23E+00	4.000721939	0.003352267	0.005875689	0.010970551	0.008020519	11.27720038	26.86027	52.88580723	58.90732235	55.17026685	75.63039915	0.127359573	0.076887763	53.06504344
11.2	2.90E-05	3.51E-05	0.138944001	0.87811	2.18E+00	3.900967927	0.003266197	0.00572313	0.010685057	0.007812349	10.98609604	26.15789	51.52193272	57.39861783	53.76762043	73.72188378	0.124132608	0.074968284	51.75781691
11.3	2.90E-05	3.50E-05	0.137253537	0.860149448	2.12E+00	3.80479957	0.003183196	0.005575967	0.010409582	0.007611424	10.70503623	25.47993	50.2043064	55.94064239	52.41176842	71.87647065	0.121012744	0.073113542	50.49318992
11.4	2.90E-05	3.48E-05	0.135624396	0.842829499	2.07E+00	3.712058014	0.003103129	0.005433964	0.01014369	0.007417433	10.43359058	24.82534	48.93097452	54.53126763	51.10076016	70.09154807	0.117995651	0.071320829	49.26942189
11.5	2.89E-05	3.47E-05	0.134053843	0.826121983	2.02E+00	3.622592749	0.003025867	0.005296897	0.009886969	0.007230078	10.17135066	24.19312	47.70008184	53.16847183	49.83274219	68.36463375	0.115077199	0.069587569	48.08485743
11.6	2.89E-05	3.46E-05	0.132539289	0.8100002	1.97E+00	3.536261098	0.00295129	0.005164554	0.009639026	0.007049077	9.917928709	23.58235	46.50986584	51.85033374	48.60595266	66.6933673	0.112253454	0.067911317	46.93792148
11.7	2.89E-05	3.45E-05	0.13107828	0.794438828	1.92E+00	3.452927749	0.002879281	0.005036735	0.009399491	0.006874164	9.672956427	22.9921	45.35865136	50.57502679	47.41871603	65.07550333	0.109520664	0.066289744	45.8271148
11.8	2.89E-05	3.44E-05	0.129668491	0.779413844	1.88E+00	3.37246432	0.002809733	0.004913247	0.009168009	0.006705085	9.436083834	22.42154	44.24484563	49.34081368	46.26943824	63.50890495	0.106875251	0.064720636	44.75100971
11.9	2.89E-05	3.43E-05	0.128307712	0.764902447	1.83E+00	3.294748943	0.00274254	0.00479391	0.008944247	0.006541598	9.20697822	21.86986	43.16693348	48.14604131	45.15660203	61.99153761	0.1043138	0.063201886	43.70824613
